12" Driver B RE = 5.81 ohms VT = 1 ft^3
Vgen = 001.000 Vrms
Frequency	Magnitude	 Phase
00009.99512	023.07625	 69.05924
00010.24463	024.13771	 69.59461
00010.51831	025.39684	 70.16318
00010.79321	026.74635	 70.63346
00011.06787	028.24439	 70.98454
00011.34180	029.81367	 71.45787
00011.64160	031.75516	 71.70682
00011.94092	033.89807	 71.97470
00012.23999	036.18866	 72.31098
00012.53955	038.89935	 72.39464
00012.87280	042.21905	 72.42291
00013.22266	046.25487	 72.38828
00013.54688	050.65583	 72.14694
00013.89600	056.27253	 71.70421
00014.24561	063.02948	 71.04152
00014.61963	072.07792	 69.89643
00014.99438	083.67567	 68.24743
00015.36792	099.07749	 65.69989
00015.76733	121.78260	 61.50823
00016.16626	154.69896	 54.63525
00016.59106	206.18168	 41.98578
00017.01489	267.37826	 19.66652
00017.43921	282.31161	-10.57408
00017.88794	228.91633	-36.96582
00018.36230	171.51929	-52.90020
00018.83643	131.29662	-61.71918
00019.32520	104.66531	-66.80888
00019.82495	086.40358	-69.81433
00020.32349	073.62375	-71.58097
00020.84717	064.04916	-72.46515
00021.37158	057.20012	-73.08133
00021.92017	051.33107	-74.21334
00022.49390	046.01060	-74.69246
00023.06836	041.78961	-74.68632
00023.66699	038.31509	-74.47045
00024.26563	035.27518	-74.37388
00024.88916	032.69950	-74.05290
00025.51318	030.48052	-73.70384
00026.19263	028.37938	-73.20582
00026.84082	026.66055	-72.76430
00027.53906	025.08893	-72.09110
00028.23779	023.73155	-71.37472
00028.96118	022.36409	-70.86244
00029.70947	021.24949	-69.99198
00030.48315	020.15815	-69.23555
00031.25684	019.15438	-68.57224
00032.07031	018.30152	-67.54910
00032.89380	017.43862	-66.67310
00033.74219	016.70631	-65.59037
00034.59058	016.02711	-64.58267
00035.48877	015.34022	-63.45584
00036.38745	014.76599	-62.25333
00037.33521	014.22728	-61.14804
00038.28369	013.76814	-59.68398
00039.26563	013.35718	-58.80807
00040.28882	012.87618	-57.69593
00041.31177	012.46144	-56.49187
00042.35986	012.08876	-55.13761
00043.45752	011.74188	-53.78507
00044.55542	011.45335	-52.29752
00045.71826	011.23179	-50.90838
00046.89136	011.05438	-49.69287
00048.08862	010.91268	-48.73428
00049.33643	010.74238	-48.41243
00050.58374	010.46802	-48.36191
00051.89697	010.10628	-47.90702
00053.24438	009.73092	-46.94368
00054.59155	009.39869	-45.72592
00055.98877	009.11629	-44.18957
00057.43652	008.87013	-42.57668
00058.92358	008.66414	-41.03145
00060.42065	008.48580	-39.55416
00061.96729	008.30230	-38.11793
00063.56421	008.12379	-36.62731
00065.19580	007.96031	-35.14113
00066.86743	007.80206	-33.51012
00068.58936	007.65419	-31.92456
00070.33569	007.51887	-30.27580
00072.14746	007.39616	-28.51824
00073.99414	007.28390	-26.77194
00075.89038	007.18541	-24.99296
00077.84155	007.09852	-23.22401
00079.83813	007.03171	-21.42308
00081.88379	006.96373	-19.64357
00083.99487	006.90180	-17.85652
00086.14111	006.84903	-16.05612
00088.36157	006.80624	-14.25466
00090.61646	006.77033	-12.47602
00092.93701	006.74284	-10.71998
00095.33228	006.72295	-08.89591
00097.79321	006.71058	-07.12488
00100.28833	006.70782	-05.38082
00102.85449	006.71304	-03.63709
00105.49927	006.72553	-01.91858
00108.19360	006.74620	-00.21827
00110.97949	006.77324	 01.45166
00113.82349	006.80926	 03.09185
00116.75269	006.85161	 04.65775
00119.74658	006.89708	 06.20078
00122.83130	006.94454	 07.69513
00125.97534	007.00673	 09.21414
00129.19922	007.07186	 10.63388
00132.51758	007.13928	 12.01862
00135.92700	007.20251	 13.43118
00139.39502	007.27038	 14.82216
00142.97266	007.35297	 16.25347
00146.64014	007.44234	 17.60029
00150.42383	007.53947	 18.90208
00154.28174	007.64108	 20.16428
00158.22485	007.74723	 21.36747
00162.30713	007.86367	 22.54035
00166.45874	007.97703	 23.61811
00170.72437	008.07976	 24.66161
00175.13257	008.19701	 25.79448
00179.60449	008.32400	 26.80553
00184.21973	008.44884	 27.81923
00188.95068	008.57762	 28.77321
00193.80176	008.70673	 29.67830
00198.78345	008.83436	 30.66503
00203.87256	008.97119	 31.60825
00209.16016	009.11708	 32.56096
00214.39893	009.26379	 33.39875
00219.88477	009.41374	 34.27535
00225.61621	009.57282	 35.16850
00231.35864	009.73728	 36.01593
00237.09424	009.90495	 36.76914
00243.32690	010.08711	 37.52956
00249.56055	010.26632	 38.24441
00255.84863	010.44223	 38.87934
00262.58911	010.61633	 39.51574
00269.32104	010.78106	 40.22215
00276.05786	010.95451	 40.95180
00283.28711	011.15184	 41.68304
00290.52148	011.35012	 42.39130
00298.00513	011.56158	 43.03847
00305.48560	011.77003	 43.66585
00313.46704	011.99093	 44.27215
00321.60303	012.21865	 44.85956
00329.83691	012.44412	 45.41344
00338.31738	012.67287	 45.94504
00346.79785	012.90283	 46.45933
00355.78223	013.14441	 47.03486
00365.00757	013.39671	 47.51742
00374.23926	013.64257	 48.02481
00384.05566	013.91138	 48.53347
00393.78564	014.17581	 48.98409
00403.76563	014.44309	 49.43214
00414.24341	014.71771	 49.88156
00424.71362	015.00397	 50.29311
00435.69482	015.29574	 50.71127
00446.91870	015.59339	 51.14371
00458.54419	015.90934	 51.52169
00470.27271	016.23652	 51.90379
00482.24243	016.55734	 52.25939
00494.71704	016.88245	 52.50904
00507.18286	017.21378	 52.87576
00520.55591	017.58833	 53.17822
00533.78491	017.94807	 53.42970
00547.49756	018.35092	 53.64420
00561.46460	018.70307	 53.55216
00576.08838	018.98594	 53.76142
00590.80933	019.31372	 54.04196
00605.77832	019.64221	 54.29246
00621.48926	020.03412	 54.68607
00637.20313	020.50254	 54.82044
00653.76489	020.83830	 54.83959
00670.47900	021.28559	 55.11552
00687.68628	021.66106	 55.04509
00705.54883	022.00855	 54.95312
00723.50928	022.33228	 55.40419
00741.97363	022.73987	 55.53254
00760.92383	023.13985	 55.64345
00780.68750	023.52219	 55.86041
00800.64038	023.87951	 56.08757
00821.09863	024.37717	 56.33871
00842.20459	024.70197	 56.54394
00863.90796	025.18076	 56.90328
00885.86011	025.66903	 57.07372
00908.65454	026.13675	 57.33540
00932.10083	026.63212	 57.50702
00955.80151	027.17962	 57.74830
00980.65088	027.70746	 57.91595
01005.59766	028.29898	 58.05535
01031.49561	028.89731	 58.06791
01057.68701	029.42903	 58.00460
01084.87793	029.90166	 58.03925
01112.71875	030.39914	 58.26797
01141.41333	031.04563	 58.51132
01170.68750	031.77203	 58.57136
01200.61938	032.51245	 58.48748
01231.46313	033.28661	 58.12305
01263.14526	033.90685	 57.42830
01295.62158	034.22309	 56.59282
01328.80176	034.14004	 56.36577
01362.88330	034.15021	 56.79288
01397.80884	034.44799	 57.59731
01433.82227	034.99259	 58.34186
01470.49048	035.62440	 58.93231
01508.31372	036.35029	 59.39956
01547.13159	037.10523	 59.72395
01586.79517	037.85905	 60.02215
01627.61499	038.64953	 60.23917
01669.37451	039.42604	 60.42600
01712.02319	040.24406	 60.55137
01756.08521	041.02625	 60.65867
01801.03442	041.79628	 60.79126
01847.19067	042.60219	 60.92168
01894.74707	043.42825	 61.04727
01943.23975	044.27002	 61.16355
01993.28540	045.13219	 61.24963
02044.41919	045.99171	 61.34557
02096.16113	046.86630	 61.41731
02151.06860	047.79746	 61.45927
02205.92188	048.69601	 61.52333
02260.77954	049.59967	 61.57810
02320.60693	050.56596	 61.64257
02378.03027	051.49117	 61.69944
02440.34424	052.47701	 61.73602
02502.65674	053.46477	 61.77153
02568.06274	054.47053	 61.81868
02632.93066	055.48800	 61.88686
02700.25928	056.52927	 61.88620
02770.05762	057.60109	 61.91934
02839.89868	058.63199	 61.93342
02912.19507	059.67578	 61.94025
02987.00513	060.79022	 61.98197
03064.29272	061.88792	 61.99323
03141.61011	063.01330	 62.02199
03225.49805	064.23056	 62.06688
03307.78687	065.39352	 62.10075
03392.57080	066.60554	 62.11782
03479.89624	067.82122	 62.16697
03567.16821	069.04648	 62.16941
03659.43188	070.31541	 62.16403
03754.19971	071.62551	 62.16478
03849.93066	072.92702	 62.19019
03949.66406	074.27635	 62.19016
04049.43896	075.59211	 62.19939
04154.22168	076.99357	 62.18769
04261.38330	078.38460	 62.20156
04368.60840	079.76300	 62.20337
04482.48535	081.26093	 62.20082
04597.24976	082.74255	 62.18140
04716.91382	084.26461	 62.20284
04836.63306	085.71141	 62.17203
04961.24194	087.27706	 62.19163
05088.41016	088.88717	 62.16978
05219.70239	090.48842	 62.15813
05351.91772	092.08903	 62.14140
05489.01855	093.74293	 62.13024
05631.13696	095.43965	 62.11707
05777.50488	097.15535	 62.08664
05924.54224	098.92917	 62.08518
06076.76392	100.65975	 62.07813
06231.30103	102.50736	 62.06114
06390.91650	104.27324	 62.01727
06556.57031	106.20007	 62.06121
06723.54224	108.04421	 62.02904
06895.64111	109.94383	 61.99812
07074.29980	111.90828	 61.97220
07256.42627	113.89931	 61.95677
07440.86548	115.98626	 61.96137
07632.83594	118.03281	 61.94052
07828.03687	120.11225	 61.93445
08027.43384	122.14273	 61.90135
08234.47168	124.44124	 61.85426
08445.60815	126.64199	 61.84311
08662.45630	128.83601	 61.82718
08884.39917	131.11909	 61.79136
09112.45801	133.53293	 61.78503
09346.75708	135.84453	 61.75916
09586.16138	138.22291	 61.69821
09832.26123	140.63277	 61.68530
10084.03931	143.12633	 61.67764
10343.05005	145.68698	 61.63015
10607.32739	148.23872	 61.61365
10880.91284	150.82376	 61.61389
11160.05078	153.58999	 61.58491
11446.73950	156.21820	 61.53219
11739.64868	158.99953	 61.54928
12041.32593	161.86305	 61.48566
12349.74194	164.76069	 61.47697
12666.30347	167.49760	 61.40385
12991.29956	170.58342	 61.39744
13325.24951	173.51396	 61.37208
13668.67993	176.59462	 61.32691
14017.52661	179.71264	 61.34510
14377.84155	182.91827	 61.26955
14748.59204	186.16794	 61.21480
15124.94971	189.53067	 61.25557
15513.27612	192.58937	 61.18957
15912.05151	196.23794	 61.11403
16320.30713	200.01935	 61.08810
16740.28442	203.14323	 61.07825
17169.08203	206.99788	 61.09307
17609.67310	210.50378	 61.04323
18061.58887	214.42133	 60.99089
18522.63428	218.27795	 60.97869
19000.51514	222.25654	 60.90913
19488.18530	225.93628	 60.86202
19988.74023	230.08239	 60.87279
